mu	density			error			entropy		docc		error
-20	8.09043140037602E-7	6.38149780440607E-9	0	1.70974345792274E-14	6.38149803603066E-9
-19.5	1.72034380985231E-6	7.27894938409865E-9	2.40004186791154E-5	7.28306304154103E-14	7.27894897928189E-9
-19	3.60023346024363E-6	3.47797573717464E-8	7.06804287747831E-5	3.27071703054571E-13	3.4779751223231E-8
-18.5	7.66144307995376E-6	6.40682373257225E-8	1.61207981904221E-4	1.47304390907266E-12	6.40682188750948E-8
-18	1.6376190070222E-5	1.72020500509664E-7	3.37769272119481E-4	6.64523991389387E-12	1.72020417410293E-7
-17.5	3.44753845400447E-5	1.94616491713877E-7	6.78774678331995E-4	2.97509794577877E-11	1.94616274499005E-7
-17	7.2883608249974E-5	6.51913254275342E-7	0.00132201141062438	1.32551081222232E-10	6.51911577164868E-7
-16.5	1.54186238869869E-4	9.57467398513345E-7	0.00255800300898873	5.88061155326614E-10	9.57461160910637E-7
-16	3.24280463799953E-4	1.72521928215452E-6	0.00490107188820982	2.64201605038039E-9	1.72520572803737E-6
-15.5	6.82128356909839E-4	3.64489782357301E-6	0.00916252311306353	1.14712898069413E-8	3.64482897079743E-6
-15	0.00141739378023997	5.58925760719722E-6	0.016687663147391	5.0226470871273E-8	5.58893740432403E-6
-14.5	0.00291619088110995	1.86025688803411E-5	0.0300577408642832	2.1147055195847E-7	1.86005805856162E-5
-14	0.00597612321948993	2.06118131886614E-5	0.0520204476778087	8.77388928954836E-7	2.06080667246453E-5
-13.5	0.0115300724541298	5.25033268820746E-5	0.0856942419412084	3.26267730388352E-6	5.24938799838747E-5
-13	0.0211309802023301	7.25966218247512E-5	0.133970402603064	1.09850320579863E-5	7.2526759482399E-5
-12.5	0.0360921332113	1.06421249138155E-4	0.194565021875978	3.21165846689508E-5	1.06246812609886E-4
-12	0.0578953564472899	1.07631273321168E-4	0.267641130790532	8.21381306408409E-5	1.07480101998079E-4
-11.8	0.06825145587834	8.44818805096039E-5	0.299835841869128	1.14322157361069E-4	8.43076114174512E-5
-11.6	0.07996700369692	1.13167424111183E-4	0.332859323307224	1.56305059701989E-4	1.12837914834324E-4
-11.4	0.09291913613745	1.87457745171235E-4	0.366586748211827	2.1082018849794E-4	1.86843533959511E-4
-11.2	0.10669648387476	1.24451250016848E-4	0.400677557273989	2.77156574649329E-4	1.24231638701129E-4
-11	0.12156584456458	1.78138633863614E-4	0.435920396361829	3.5977273187604E-4	1.77399076145435E-4
-10.8	0.13761687015319	9.42560128838541E-5	0.472910589607243	4.58455350256126E-4	9.33483240260029E-5
-10.6	0.15465372805466	2.24533712763814E-4	0.510731688281179	5.76083974262009E-4	2.23256484514997E-4
-10.4	0.17270148222331	1.4268887247326E-4	0.550069463631832	7.10433433046997E-4	1.41929859745844E-4
-10.2	0.19130521127748	2.07465380733259E-4	0.590481104194269	8.70608701534992E-4	2.06390432335239E-4
-10	0.21126266336961	1.61538164089715E-4	0.631813621100973	0.00104775041189686	1.61764449367043E-4
-9.8	0.23231205881952	2.06650390016196E-4	0.674173110049095	0.00125216864800004	2.05685435289972E-4
-9.6	0.25405519652733	2.33675217710915E-4	0.716892834502905	0.00148626052176482	2.33972720205964E-4
-9.4	0.27631575644116	4.33475765669119E-4	0.760232988974664	0.00174331823743756	4.29779506349232E-4
-9.2	0.30057699619231	2.09322872201941E-4	0.80272971661011	0.0020351098368192	2.08899314240763E-4
-9	0.32454316700538	2.66771658320293E-4	0.846078633595587	0.00234501692406497	2.64303550964771E-4
-8.8	0.34976708802631	3.12160495858202E-4	0.890512635789255	0.0026826855262212	3.11815983598181E-4
-8.6	0.37558647081371	1.62039868183878E-4	0.934575332435374	0.00307036800523819	1.62804719980835E-4
-8.4	0.40218386244539	1.84024780218155E-4	0.977597519392207	0.00346824076633701	1.8459413175706E-4
-8.2	0.42790646564107	1.79106362704992E-4	1.02084366549643	0.00388864915850173	1.77621329771752E-4
-8	0.45528461783854	1.93353504005185E-4	1.06322111068383	0.00434892201525605	1.89210053911084E-4
-7.8	0.48226760156305	3.02472856465402E-4	1.10367676514101	0.00484031093337711	3.03521097044884E-4
-7.6	0.50985886299524	2.69111206792392E-4	1.14169538887869	0.00535087705958909	2.71850512589816E-4
-7.4	0.53660694863719	2.95998742920345E-4	1.17605492748821	0.00588235858709812	2.95709749311736E-4
-7.2	0.56314968675765	1.84053029458577E-4	1.20803873358744	0.00643383326725	1.90861543631546E-4
-7	0.59041269732545	2.68516581558041E-4	1.24044256972926	0.00702882630370205	2.72743109554394E-4
-6.8	0.61652014603607	2.39827111488224E-4	1.2736512512625	0.0076016716402989	2.35871058853115E-4
-6.6	0.64255910818261	3.53484511993836E-4	1.30264616803206	0.00821737228472286	3.47264935790012E-4
-6.4	0.66863434241013	2.86528161891566E-4	1.33024569726154	0.00884241882109893	2.89771374041218E-4
-6.2	0.69296353902472	3.45946898020404E-4	1.35550880637599	0.00945539978020898	3.41048513032217E-4
-6	0.71791193882078	3.46135130858953E-4	1.37895588178201	0.0100540202536668	3.44737719560534E-4
-5.8	0.74207133901337	4.93326756693762E-4	1.40191867655816	0.010721669718915	4.89860446842209E-4
-5.6	0.76508623530506	4.45404274340382E-4	1.42388790409198	0.0113006747891751	4.50082921588342E-4
-5.4	0.78778986146583	2.56005263775323E-4	1.44337729092958	0.0119542364185168	2.45997433781864E-4
-5.2	0.81017767274519	1.80357130060485E-4	1.45828009370159	0.0126043884450232	1.74425191237447E-4
-5	0.83034016908938	2.60778329742995E-4	1.47222066323988	0.0131535602762269	2.38349195878127E-4
-4.8	0.85101784602022	3.12644458910081E-4	1.48239316028696	0.0138150949590921	3.01398820298602E-4
-4.6	0.86931789612797	2.03433163853784E-4	1.48838640310659	0.014337239892735	2.07966639745033E-4
-4.4	0.8874401952124	1.88340488712919E-4	1.49099575760951	0.014950310242851	1.97475276955964E-4
-4.2	0.90308589902148	3.38822099559051E-4	1.49136869751049	0.0154732519907911	3.39988234287823E-4
-4	0.91849366299886	2.00008897981567E-4	1.48745448756817	0.0159746959832726	1.92149999050771E-4
-3.8	0.93206762168142	2.9232781064161E-4	1.47785624916621	0.0163929621042159	2.5944655274274E-4
-3.6	0.94448083215895	2.17907154738815E-4	1.46557222473739	0.0168779991820759	2.14369361562552E-4
-3.4	0.95483123448063	2.27103330695024E-4	1.45215578025303	0.0171459628267583	2.34672606236085E-4
-3.2	0.96403483882436	4.07665788760435E-4	1.43570773816746	0.0174769881317626	3.78592794946243E-4
-3	0.97142721875069	1.00114103749529E-4	1.41727746420206	0.0178024925563072	1.21045431818251E-4
-2.8	0.97793744821441	1.33798505986033E-4	1.40019379604358	0.0180052155862585	1.46165587758875E-4
-2.6	0.98287423119103	1.08364743477272E-4	1.38468957253621	0.0181128964226988	1.05280839355397E-4
-2.4	0.98711761789837	8.43840260457252E-5	1.37037086507584	0.0183533731072107	8.609400179875E-5
-2.2	0.98990799503952	7.9794262374529E-5	1.35649912149683	0.0185345327625016	9.69384864657129E-5
-2	0.99257026345711	7.71463730707342E-5	1.34435933647636	0.0185663534015201	9.92679954896511E-5
-1.8	0.99429589817472	6.88076639471753E-5	1.33433000532219	0.0186325047965149	6.48102019886018E-5
-1.6	0.99585651484953	3.17207582878332E-5	1.32605306971882	0.0187752360470291	8.26755702677114E-5
-1.4	0.99685032483785	3.30388809646205E-5	1.31940133790316	0.0188463340619277	5.109886492692E-5
-1.2	0.99771457613554	1.82190896628856E-5	1.31398963572144	0.0189176568093014	7.29176001868281E-5
-1	0.99832616407011	3.14447772442193E-5	1.30969981425243	0.0189459897206894	6.30983103035088E-5
-0.8	0.99882447416237	1.5391835838187E-5	1.30638461560401	0.0189584761752248	9.53602768577878E-5
-0.6	0.9992088941278	8.09929765888735E-6	1.30391849667801	0.0190283988527901	9.48953365624749E-5
-0.4	0.9994899684759	7.53832787377362E-6	1.30226152452939	0.0190902854421378	8.47349015446571E-5
-0.2	0.99975911076389	3.27582730773183E-6	1.30128417627262	0.0190024576580143	8.74868366668092E-5
0	1	0	1.30096629666932	0.019215	1.04246E-4
0.2	1.00024	3.27583E-6	1.30127829666932	0.019245	8.74868E-5
0.4	1.00051	7.53833E-6	1.30224129666932	0.0196	8.47349E-5
0.6	1.00079	8.0993E-6	1.30388829666932	0.0198200000000001	9.48953E-5
0.8	1.00118	1.53918E-5	1.30635729666932	0.020135	9.53603E-5
1	1.00167	3.14448E-5	1.30966029666932	0.02062	6.30983E-5
1.2	1.00229	1.82191E-5	1.31392029666932	0.021205	7.29176E-5
1.4	1.00315	3.30389E-5	1.31932929666932	0.021995	5.10989E-5
1.6	1.00414	3.17208E-5	1.32600729666932	0.022915	8.26756E-5
1.8	1.0057	6.88077E-5	1.33429029666932	0.024335	6.48102E-5
2	1.00743	7.71464E-5	1.34431929666932	0.025995	9.9268E-5
2.2	1.01009	7.97943E-5	1.35646029666932	0.028625	9.69385E-5
2.4	1.01288	8.4384E-5	1.37033229666932	0.031235	8.6094E-5
2.6	1.01713	1.08365E-4	1.38467229666932	0.03524	1.05281E-4
2.8	1.02206	1.33799E-4	1.40019429666932	0.040065	1.46166E-4
3	1.02857	1.00114E-4	1.41730329666932	0.046375	1.21045E-4
3.2	1.03597	4.07666E-4	1.43575929666932	0.053445	3.78593E-4
3.4	1.04517	2.27103E-4	1.45220529666932	0.062315	2.34673E-4
3.6	1.05552	2.17907E-4	1.46562429666932	0.0724	2.14369E-4
3.8	1.06793	2.92328E-4	1.47792429666932	0.084325	2.59447E-4
4	1.08151	2.00009E-4	1.48752729666933	0.097485	1.9215E-4
4.2	1.09691	3.38822E-4	1.49143929666933	0.112385	3.39988E-4
4.4	1.11256	1.8834E-4	1.49107029666933	0.12751	1.97475E-4
4.6	1.13068	2.03433E-4	1.48846329666933	0.14502	2.07967E-4
4.8	1.14898	3.12644E-4	1.48246029666933	0.162795	3.01399E-4
5	1.16966	2.60778E-4	1.47227529666933	0.182815	2.38349E-4
5.2	1.18982	1.80357E-4	1.45832829666933	0.202425	1.74425E-4
5.4	1.21221	2.56005E-4	1.44341229666933	0.224165	2.45997E-4
5.6	1.23491	4.45404E-4	1.42390029666933	0.246215	4.50083E-4
5.8	1.25793	4.93327E-4	1.40193729666933	0.26865	4.8986E-4
6	1.28209	3.46135E-4	1.37899629666933	0.292145	3.44738E-4
6.2	1.30704	3.45947E-4	1.35557529666933	0.316495	3.41049E-4
6.4	1.33137	2.86528E-4	1.33032729666932	0.34021	2.89771E-4
6.6	1.35744	3.53485E-4	1.30272129666932	0.36566	3.47265E-4
6.8	1.38348	2.39827E-4	1.27371129666932	0.39108	2.35871E-4
7	1.40959	2.68517E-4	1.24047729666932	0.416615	2.72743E-4
7.2	1.43685	1.84053E-4	1.20807129666932	0.443285	1.90862E-4
7.4	1.46339	2.95999E-4	1.17609429666933	0.469275	2.9571E-4
7.6	1.49014	2.69111E-4	1.14172929666933	0.49549	2.71851E-4
7.8	1.51773	3.02473E-4	1.10370429666933	0.52257	3.03521E-4
8	1.54472	1.93354E-4	1.06324329666933	0.549065	1.8921E-4
8.2	1.57209	1.79106E-4	1.02086229666933	0.57598	1.77621E-4
8.4	1.59782	1.84025E-4	0.977614296669326	0.601285	1.84594E-4
8.6	1.62441	1.6204E-4	0.934588296669326	0.62748	1.62805E-4
8.8	1.65023	3.1216E-4	0.890533296669325	0.652915	3.11816E-4
9	1.67546	2.66772E-4	0.846106296669324	0.677805	2.64304E-4
9.2	1.69942	2.09323E-4	0.802759296669325	0.701455	2.08899E-4
9.4	1.72368	4.33476E-4	0.760252296669324	0.725425	4.2978E-4
9.6	1.74594	2.33675E-4	0.716884296669325	0.74743	2.33973E-4
9.8	1.76769	2.0665E-4	0.674137296669324	0.76894	2.05685E-4
10	1.78874	1.61538E-4	0.631759296669325	0.789785	1.61764E-4
10.2	1.80869	2.07465E-4	0.590422296669324	0.809565	2.0639E-4
10.4	1.8273	1.42689E-4	0.550015296669324	0.82801	1.4193E-4
10.6	1.84535	2.24534E-4	0.510691296669324	0.845925	2.23256E-4
10.8	1.86238	9.4256E-5	0.472894296669323	0.86284	9.33483E-5
11	1.87843	1.78139E-4	0.435919296669324	0.87879	1.77399E-4
11.2	1.8933	1.24451E-4	0.400684296669325	0.89358	1.24232E-4
11.4	1.90708	1.87458E-4	0.366601296669325	0.90729	1.86844E-4
11.6	1.92003	1.13167E-4	0.332863296669326	0.92019	1.12838E-4
11.8	1.93175	8.44819E-5	0.299839296669326	0.931865	8.43076E-5
12	1.9421	1.07631E-4	0.267661296669326	0.942185	1.0748E-4
12.5	1.96391	1.06421E-4	0.194611296669327	0.96394	1.06247E-4
13	1.97887	7.25966E-5	0.134026296669328	0.97888	7.25268E-5
13.5	1.98847	5.25033E-5	0.0857487966693263	0.988475	5.24939E-5
14	1.99402	2.06118E-5	0.0520587966693251	0.994025	2.06081E-5
14.5	1.99708	1.86026E-5	0.0301062966693247	0.99708	1.86006E-5
15	1.99858	5.58926E-6	0.0167712966693236	0.99858	5.58894E-6
15.5	1.99932	3.6449E-6	0.00927879666932381	0.9993189475	3.64483E-6
16	1.99968	1.72522E-6	0.00501879666932555	0.9996778625	1.72521E-6
16.5	1.99985	9.57467E-7	0.00270129666932636	0.9998479075	9.57461E-7
17	1.99993	6.51913E-7	0.00148629666932689	0.99992855835	6.51912E-7
17.5	1.99997	1.94616E-7	8.26296669328728E-4	0.99996776235	1.94616E-7
18	1.99998	1.72021E-7	4.9629666933023E-4	0.9999818119	1.7202E-7
18.5	1.99999	6.40682E-8	3.23796669330266E-4	0.99999116928	6.40682E-8
19	2	3.47798E-8	2.11296669329529E-4	0.999998199885	3.47798E-8
19.5	2	7.27895E-9	1.58796669329185E-4	0.99999913983	7.27895E-9
20	2	6.3815E-9	1.58796669329185E-4	0.9999995954785	6.3815E-9
